#      z (A) rho (1e-6/A2) irho (1e-6/A2)
-82.31890000   0.00216003   0.00000000
-82.21890000   0.00217322   0.00000000
-82.11890000   0.00218648   0.00000000
-82.01890000   0.00219982   0.00000000
-81.91890000   0.00221323   0.00000000
-81.81890000   0.00222672   0.00000000
-81.71890000   0.00224028   0.00000000
-81.61890000   0.00225392   0.00000000
-81.51890000   0.00226763   0.00000000
-81.41890000   0.00228142   0.00000000
-81.31890000   0.00229529   0.00000000
-81.21890000   0.00230923   0.00000000
-81.11890000   0.00232325   0.00000000
-81.01890000   0.00233735   0.00000000
-80.91890000   0.00235153   0.00000000
-80.81890000   0.00236578   0.00000000
-80.71890000   0.00238011   0.00000000
-80.61890000   0.00239453   0.00000000
-80.51890000   0.00240902   0.00000000
-80.41890000   0.00242359   0.00000000
-80.31890000   0.00243824   0.00000000
-80.21890000   0.00245298   0.00000000
-80.11890000   0.00246779   0.00000000
-80.01890000   0.00248269   0.00000000
-79.91890000   0.00249766   0.00000000
-79.81890000   0.00251272   0.00000000
-79.71890000   0.00252787   0.00000000
-79.61890000   0.00254309   0.00000000
-79.51890000   0.00255840   0.00000000
-79.41890000   0.00257379   0.00000000
-79.31890000   0.00258927   0.00000000
-79.21890000   0.00260483   0.00000000
-79.11890000   0.00262048   0.00000000
-79.01890000   0.00263622   0.00000000
-78.91890000   0.00265203   0.00000000
-78.81890000   0.00266794   0.00000000
-78.71890000   0.00268393   0.00000000
-78.61890000   0.00270001   0.00000000
-78.51890000   0.00271618   0.00000000
-78.41890000   0.00273244   0.00000000
-78.31890000   0.00274878   0.00000000
-78.21890000   0.00276521   0.00000000
-78.11890000   0.00278174   0.00000000
-78.01890000   0.00279835   0.00000000
-77.91890000   0.00281505   0.00000000
-77.81890000   0.00283184   0.00000000
-77.71890000   0.00284873   0.00000000
-77.61890000   0.00286570   0.00000000
-77.51890000   0.00288277   0.00000000
-77.41890000   0.00289993   0.00000000
-77.31890000   0.00291718   0.00000000
-77.21890000   0.00293453   0.00000000
-77.11890000   0.00295197   0.00000000
-77.01890000   0.00296950   0.00000000
-76.91890000   0.00298713   0.00000000
-76.81890000   0.00300486   0.00000000
-76.71890000   0.00302267   0.00000000
-76.61890000   0.00304059   0.00000000
-76.51890000   0.00305860   0.00000000
-76.41890000   0.00307671   0.00000000
-76.31890000   0.00309492   0.00000000
-76.21890000   0.00311322   0.00000000
-76.11890000   0.00313162   0.00000000
-76.01890000   0.00315012   0.00000000
-75.91890000   0.00316872   0.00000000
-75.81890000   0.00318742   0.00000000
-75.71890000   0.00320622   0.00000000
-75.61890000   0.00322512   0.00000000
-75.51890000   0.00324412   0.00000000
-75.41890000   0.00326323   0.00000000
-75.31890000   0.00328243   0.00000000
-75.21890000   0.00330174   0.00000000
-75.11890000   0.00332115   0.00000000
-75.01890000   0.00334067   0.00000000
-74.91890000   0.00336028   0.00000000
-74.81890000   0.00338001   0.00000000
-74.71890000   0.00339983   0.00000000
-74.61890000   0.00341977   0.00000000
-74.51890000   0.00343981   0.00000000
-74.41890000   0.00345995   0.00000000
-74.31890000   0.00348020   0.00000000
-74.21890000   0.00350056   0.00000000
-74.11890000   0.00352103   0.00000000
-74.01890000   0.00354161   0.00000000
-73.91890000   0.00356229   0.00000000
-73.81890000   0.00358308   0.00000000
-73.71890000   0.00360399   0.00000000
-73.61890000   0.00362500   0.00000000
-73.51890000   0.00364613   0.00000000
-73.41890000   0.00366737   0.00000000
-73.31890000   0.00368872   0.00000000
-73.21890000   0.00371018   0.00000000
-73.11890000   0.00373175   0.00000000
-73.01890000   0.00375344   0.00000000
-72.91890000   0.00377524   0.00000000
-72.81890000   0.00379716   0.00000000
-72.71890000   0.00381919   0.00000000
-72.61890000   0.00384134   0.00000000
-72.51890000   0.00386360   0.00000000
-72.41890000   0.00388598   0.00000000
-72.31890000   0.00390848   0.00000000
-72.21890000   0.00393109   0.00000000
-72.11890000   0.00395383   0.00000000
-72.01890000   0.00397668   0.00000000
-71.91890000   0.00399965   0.00000000
-71.81890000   0.00402274   0.00000000
-71.71890000   0.00404595   0.00000000
-71.61890000   0.00406929   0.00000000
-71.51890000   0.00409274   0.00000000
-71.41890000   0.00411632   0.00000000
-71.31890000   0.00414002   0.00000000
-71.21890000   0.00416384   0.00000000
-71.11890000   0.00418779   0.00000000
-71.01890000   0.00421186   0.00000000
-70.91890000   0.00423605   0.00000000
-70.81890000   0.00426037   0.00000000
-70.71890000   0.00428482   0.00000000
-70.61890000   0.00430939   0.00000000
-70.51890000   0.00433410   0.00000000
-70.41890000   0.00435892   0.00000000
-70.31890000   0.00438388   0.00000000
-70.21890000   0.00440897   0.00000000
-70.11890000   0.00443418   0.00000000
-70.01890000   0.00445953   0.00000000
-69.91890000   0.00448500   0.00000000
-69.81890000   0.00451061   0.00000000
-69.71890000   0.00453635   0.00000000
-69.61890000   0.00456222   0.00000000
-69.51890000   0.00458823   0.00000000
-69.41890000   0.00461437   0.00000000
-69.31890000   0.00464064   0.00000000
-69.21890000   0.00466704   0.00000000
-69.11890000   0.00469359   0.00000000
-69.01890000   0.00472027   0.00000000
-68.91890000   0.00474708   0.00000000
-68.81890000   0.00477403   0.00000000
-68.71890000   0.00480112   0.00000000
-68.61890000   0.00482835   0.00000000
-68.51890000   0.00485572   0.00000000
-68.41890000   0.00488323   0.00000000
-68.31890000   0.00491088   0.00000000
-68.21890000   0.00493866   0.00000000
-68.11890000   0.00496659   0.00000000
-68.01890000   0.00499467   0.00000000
-67.91890000   0.00502288   0.00000000
-67.81890000   0.00505124   0.00000000
-67.71890000   0.00507974   0.00000000
-67.61890000   0.00510839   0.00000000
-67.51890000   0.00513718   0.00000000
-67.41890000   0.00516612   0.00000000
-67.31890000   0.00519520   0.00000000
-67.21890000   0.00522444   0.00000000
-67.11890000   0.00525382   0.00000000
-67.01890000   0.00528334   0.00000000
-66.91890000   0.00531302   0.00000000
-66.81890000   0.00534285   0.00000000
-66.71890000   0.00537283   0.00000000
-66.61890000   0.00540296   0.00000000
-66.51890000   0.00543324   0.00000000
-66.41890000   0.00546367   0.00000000
-66.31890000   0.00549425   0.00000000
-66.21890000   0.00552499   0.00000000
-66.11890000   0.00555589   0.00000000
-66.01890000   0.00558694   0.00000000
-65.91890000   0.00561814   0.00000000
-65.81890000   0.00564950   0.00000000
-65.71890000   0.00568102   0.00000000
-65.61890000   0.00571270   0.00000000
-65.51890000   0.00574453   0.00000000
-65.41890000   0.00577653   0.00000000
-65.31890000   0.00580868   0.00000000
-65.21890000   0.00584100   0.00000000
-65.11890000   0.00587347   0.00000000
-65.01890000   0.00590611   0.00000000
-64.91890000   0.00593891   0.00000000
-64.81890000   0.00597187   0.00000000
-64.71890000   0.00600500   0.00000000
-64.61890000   0.00603829   0.00000000
-64.51890000   0.00607175   0.00000000
-64.41890000   0.00610537   0.00000000
-64.31890000   0.00613916   0.00000000
-64.21890000   0.00617312   0.00000000
-64.11890000   0.00620725   0.00000000
-64.01890000   0.00624154   0.00000000
-63.91890000   0.00627601   0.00000000
-63.81890000   0.00631064   0.00000000
-63.71890000   0.00634545   0.00000000
-63.61890000   0.00638043   0.00000000
-63.51890000   0.00641558   0.00000000
-63.41890000   0.00645090   0.00000000
-63.31890000   0.00648640   0.00000000
-63.21890000   0.00652207   0.00000000
-63.11890000   0.00655792   0.00000000
-63.01890000   0.00659395   0.00000000
-62.91890000   0.00663015   0.00000000
-62.81890000   0.00666653   0.00000000
-62.71890000   0.00670308   0.00000000
-62.61890000   0.00673982   0.00000000
-62.51890000   0.00677674   0.00000000
-62.41890000   0.00681384   0.00000000
-62.31890000   0.00685111   0.00000000
-62.21890000   0.00688858   0.00000000
-62.11890000   0.00692622   0.00000000
-62.01890000   0.00696405   0.00000000
-61.91890000   0.00700206   0.00000000
-61.81890000   0.00704026   0.00000000
-61.71890000   0.00707864   0.00000000
-61.61890000   0.00711721   0.00000000
-61.51890000   0.00715597   0.00000000
-61.41890000   0.00719492   0.00000000
-61.31890000   0.00723405   0.00000000
-61.21890000   0.00727338   0.00000000
-61.11890000   0.00731290   0.00000000
-61.01890000   0.00735260   0.00000000
-60.91890000   0.00739250   0.00000000
-60.81890000   0.00743260   0.00000000
-60.71890000   0.00747289   0.00000000
-60.61890000   0.00751337   0.00000000
-60.51890000   0.00755405   0.00000000
-60.41890000   0.00759492   0.00000000
-60.31890000   0.00763599   0.00000000
-60.21890000   0.00767726   0.00000000
-60.11890000   0.00771873   0.00000000
-60.01890000   0.00776040   0.00000000
-59.91890000   0.00780226   0.00000000
-59.81890000   0.00784433   0.00000000
-59.71890000   0.00788660   0.00000000
-59.61890000   0.00792908   0.00000000
-59.51890000   0.00797176   0.00000000
-59.41890000   0.00801464   0.00000000
-59.31890000   0.00805772   0.00000000
-59.21890000   0.00810102   0.00000000
-59.11890000   0.00814452   0.00000000
-59.01890000   0.00818823   0.00000000
-58.91890000   0.00823214   0.00000000
-58.81890000   0.00827627   0.00000000
-58.71890000   0.00832061   0.00000000
-58.61890000   0.00836516   0.00000000
-58.51890000   0.00840992   0.00000000
-58.41890000   0.00845489   0.00000000
-58.31890000   0.00850008   0.00000000
-58.21890000   0.00854548   0.00000000
-58.11890000   0.00859110   0.00000000
-58.01890000   0.00863693   0.00000000
-57.91890000   0.00868298   0.00000000
-57.81890000   0.00872925   0.00000000
-57.71890000   0.00877574   0.00000000
-57.61890000   0.00882244   0.00000000
-57.51890000   0.00886937   0.00000000
-57.41890000   0.00891652   0.00000000
-57.31890000   0.00896390   0.00000000
-57.21890000   0.00901149   0.00000000
-57.11890000   0.00905931   0.00000000
-57.01890000   0.00910736   0.00000000
-56.91890000   0.00915563   0.00000000
-56.81890000   0.00920413   0.00000000
-56.71890000   0.00925285   0.00000000
-56.61890000   0.00930181   0.00000000
-56.51890000   0.00935099   0.00000000
-56.41890000   0.00940041   0.00000000
-56.31890000   0.00945006   0.00000000
-56.21890000   0.00949993   0.00000000
-56.11890000   0.00955005   0.00000000
-56.01890000   0.00960039   0.00000000
-55.91890000   0.00965098   0.00000000
-55.81890000   0.00970179   0.00000000
-55.71890000   0.00975285   0.00000000
-55.61890000   0.00980414   0.00000000
-55.51890000   0.00985567   0.00000000
-55.41890000   0.00990744   0.00000000
-55.31890000   0.00995946   0.00000000
-55.21890000   0.01001171   0.00000000
-55.11890000   0.01006421   0.00000000
-55.01890000   0.01011695   0.00000000
-54.91890000   0.01016993   0.00000000
-54.81890000   0.01022316   0.00000000
-54.71890000   0.01027664   0.00000000
-54.61890000   0.01033036   0.00000000
-54.51890000   0.01038434   0.00000000
-54.41890000   0.01043856   0.00000000
-54.31890000   0.01049303   0.00000000
-54.21890000   0.01054775   0.00000000
-54.11890000   0.01060273   0.00000000
-54.01890000   0.01065796   0.00000000
-53.91890000   0.01071344   0.00000000
-53.81890000   0.01076918   0.00000000
-53.71890000   0.01082517   0.00000000
-53.61890000   0.01088142   0.00000000
-53.51890000   0.01093793   0.00000000
-53.41890000   0.01099470   0.00000000
-53.31890000   0.01105172   0.00000000
-53.21890000   0.01110901   0.00000000
-53.11890000   0.01116657   0.00000000
-53.01890000   0.01122438   0.00000000
-52.91890000   0.01128246   0.00000000
-52.81890000   0.01134080   0.00000000
-52.71890000   0.01139941   0.00000000
-52.61890000   0.01145829   0.00000000
-52.51890000   0.01151743   0.00000000
-52.41890000   0.01157684   0.00000000
-52.31890000   0.01163653   0.00000000
-52.21890000   0.01169648   0.00000000
-52.11890000   0.01175671   0.00000000
-52.01890000   0.01181721   0.00000000
-51.91890000   0.01187798   0.00000000
-51.81890000   0.01193903   0.00000000
-51.71890000   0.01200036   0.00000000
-51.61890000   0.01206196   0.00000000
-51.51890000   0.01212384   0.00000000
-51.41890000   0.01218600   0.00000000
-51.31890000   0.01224844   0.00000000
-51.21890000   0.01231117   0.00000000
-51.11890000   0.01237417   0.00000000
-51.01890000   0.01243746   0.00000000
-50.91890000   0.01250103   0.00000000
-50.81890000   0.01256489   0.00000000
-50.71890000   0.01262904   0.00000000
-50.61890000   0.01269347   0.00000000
-50.51890000   0.01275820   0.00000000
-50.41890000   0.01282321   0.00000000
-50.31890000   0.01288851   0.00000000
-50.21890000   0.01295411   0.00000000
-50.11890000   0.01302000   0.00000000
-50.01890000   0.01308618   0.00000000
-49.91890000   0.01315266   0.00000000
-49.81890000   0.01321944   0.00000000
-49.71890000   0.01328651   0.00000000
-49.61890000   0.01335388   0.00000000
-49.51890000   0.01342155   0.00000000
-49.41890000   0.01348953   0.00000000
-49.31890000   0.01355780   0.00000000
-49.21890000   0.01362638   0.00000000
-49.11890000   0.01369526   0.00000000
-49.01890000   0.01376445   0.00000000
-48.91890000   0.01383394   0.00000000
-48.81890000   0.01390374   0.00000000
-48.71890000   0.01397385   0.00000000
-48.61890000   0.01404427   0.00000000
-48.51890000   0.01411500   0.00000000
-48.41890000   0.01418604   0.00000000
-48.31890000   0.01425740   0.00000000
-48.21890000   0.01432907   0.00000000
-48.11890000   0.01440105   0.00000000
-48.01890000   0.01447335   0.00000000
-47.91890000   0.01454597   0.00000000
-47.81890000   0.01461891   0.00000000
-47.71890000   0.01469217   0.00000000
-47.61890000   0.01476575   0.00000000
-47.51890000   0.01483965   0.00000000
-47.41890000   0.01491388   0.00000000
-47.31890000   0.01498843   0.00000000
-47.21890000   0.01506330   0.00000000
-47.11890000   0.01513850   0.00000000
-47.01890000   0.01521403   0.00000000
-46.91890000   0.01528989   0.00000000
-46.81890000   0.01536608   0.00000000
-46.71890000   0.01544261   0.00000000
-46.61890000   0.01551946   0.00000000
-46.51890000   0.01559665   0.00000000
-46.41890000   0.01567417   0.00000000
-46.31890000   0.01575203   0.00000000
-46.21890000   0.01583023   0.00000000
-46.11890000   0.01590877   0.00000000
-46.01890000   0.01598765   0.00000000
-45.91890000   0.01606686   0.00000000
-45.81890000   0.01614642   0.00000000
-45.71890000   0.01622633   0.00000000
-45.61890000   0.01630657   0.00000000
-45.51890000   0.01638717   0.00000000
-45.41890000   0.01646811   0.00000000
-45.31890000   0.01654940   0.00000000
-45.21890000   0.01663104   0.00000000
-45.11890000   0.01671303   0.00000000
-45.01890000   0.01679537   0.00000000
-44.91890000   0.01687807   0.00000000
-44.81890000   0.01696112   0.00000000
-44.71890000   0.01704453   0.00000000
-44.61890000   0.01712829   0.00000000
-44.51890000   0.01721241   0.00000000
-44.41890000   0.01729689   0.00000000
-44.31890000   0.01738173   0.00000000
-44.21890000   0.01746693   0.00000000
-44.11890000   0.01755250   0.00000000
-44.01890000   0.01763843   0.00000000
-43.91890000   0.01772473   0.00000000
-43.81890000   0.01781139   0.00000000
-43.71890000   0.01789843   0.00000000
-43.61890000   0.01798583   0.00000000
-43.51890000   0.01807360   0.00000000
-43.41890000   0.01816174   0.00000000
-43.31890000   0.01825026   0.00000000
-43.21890000   0.01833915   0.00000000
-43.11890000   0.01842842   0.00000000
-43.01890000   0.01851807   0.00000000
-42.91890000   0.01860809   0.00000000
-42.81890000   0.01869849   0.00000000
-42.71890000   0.01878928   0.00000000
-42.61890000   0.01888044   0.00000000
-42.51890000   0.01897199   0.00000000
-42.41890000   0.01906393   0.00000000
-42.31890000   0.01915625   0.00000000
-42.21890000   0.01924896   0.00000000
-42.11890000   0.01934206   0.00000000
-42.01890000   0.01943555   0.00000000
-41.91890000   0.01952942   0.00000000
-41.81890000   0.01962370   0.00000000
-41.71890000   0.01971836   0.00000000
-41.61890000   0.01981342   0.00000000
-41.51890000   0.01990888   0.00000000
-41.41890000   0.02000474   0.00000000
-41.31890000   0.02010099   0.00000000
-41.21890000   0.02019765   0.00000000
-41.11890000   0.02029471   0.00000000
-41.01890000   0.02039217   0.00000000
-40.91890000   0.02049003   0.00000000
-40.81890000   0.02058831   0.00000000
-40.71890000   0.02068699   0.00000000
-40.61890000   0.02078607   0.00000000
-40.51890000   0.02088557   0.00000000
-40.41890000   0.02098548   0.00000000
-40.31890000   0.02108581   0.00000000
-40.21890000   0.02118654   0.00000000
-40.11890000   0.02128769   0.00000000
-40.01890000   0.02138926   0.00000000
-39.91890000   0.02149125   0.00000000
-39.81890000   0.02159366   0.00000000
-39.71890000   0.02169649   0.00000000
-39.61890000   0.02179974   0.00000000
-39.51890000   0.02190341   0.00000000
-39.41890000   0.02200751   0.00000000
-39.31890000   0.02211203   0.00000000
-39.21890000   0.02221699   0.00000000
-39.11890000   0.02232237   0.00000000
-39.01890000   0.02242818   0.00000000
-38.91890000   0.02253443   0.00000000
-38.81890000   0.02264111   0.00000000
-38.71890000   0.02274822   0.00000000
-38.61890000   0.02285577   0.00000000
-38.51890000   0.02296376   0.00000000
-38.41890000   0.02307219   0.00000000
-38.31890000   0.02318105   0.00000000
-38.21890000   0.02329036   0.00000000
-38.11890000   0.02340012   0.00000000
-38.01890000   0.02351031   0.00000000
-37.91890000   0.02362096   0.00000000
-37.81890000   0.02373205   0.00000000
-37.71890000   0.02384359   0.00000000
-37.61890000   0.02395558   0.00000000
-37.51890000   0.02406802   0.00000000
-37.41890000   0.02418091   0.00000000
-37.31890000   0.02429427   0.00000000
-37.21890000   0.02440807   0.00000000
-37.11890000   0.02452234   0.00000000
-37.01890000   0.02463706   0.00000000
-36.91890000   0.02475224   0.00000000
-36.81890000   0.02486789   0.00000000
-36.71890000   0.02498400   0.00000000
-36.61890000   0.02510057   0.00000000
-36.51890000   0.02521761   0.00000000
-36.41890000   0.02533512   0.00000000
-36.31890000   0.02545310   0.00000000
-36.21890000   0.02557154   0.00000000
-36.11890000   0.02569046   0.00000000
-36.01890000   0.02580986   0.00000000
-35.91890000   0.02592973   0.00000000
-35.81890000   0.02605007   0.00000000
-35.71890000   0.02617090   0.00000000
-35.61890000   0.02629220   0.00000000
-35.51890000   0.02641398   0.00000000
-35.41890000   0.02653625   0.00000000
-35.31890000   0.02665900   0.00000000
-35.21890000   0.02678224   0.00000000
-35.11890000   0.02690596   0.00000000
-35.01890000   0.02703017   0.00000000
-34.91890000   0.02715488   0.00000000
-34.81890000   0.02728007   0.00000000
-34.71890000   0.02740576   0.00000000
-34.61890000   0.02753194   0.00000000
-34.51890000   0.02765861   0.00000000
-34.41890000   0.02778579   0.00000000
-34.31890000   0.02791346   0.00000000
-34.21890000   0.02804164   0.00000000
-34.11890000   0.02817031   0.00000000
-34.01890000   0.02829949   0.00000000
-33.91890000   0.02842918   0.00000000
-33.81890000   0.02855937   0.00000000
-33.71890000   0.02869007   0.00000000
-33.61890000   0.02882128   0.00000000
-33.51890000   0.02895300   0.00000000
-33.41890000   0.02908524   0.00000000
-33.31890000   0.02921798   0.00000000
-33.21890000   0.02935125   0.00000000
-33.11890000   0.02948503   0.00000000
-33.01890000   0.02961933   0.00000000
-32.91890000   0.02975415   0.00000000
-32.81890000   0.02988949   0.00000000
-32.71890000   0.03002536   0.00000000
-32.61890000   0.03016175   0.00000000
-32.51890000   0.03029867   0.00000000
-32.41890000   0.03043612   0.00000000
-32.31890000   0.03057410   0.00000000
-32.21890000   0.03071261   0.00000000
-32.11890000   0.03085165   0.00000000
-32.01890000   0.03099122   0.00000000
-31.91890000   0.03113134   0.00000000
-31.81890000   0.03127199   0.00000000
-31.71890000   0.03141318   0.00000000
-31.61890000   0.03155491   0.00000000
-31.51890000   0.03169718   0.00000000
-31.41890000   0.03184000   0.00000000
-31.31890000   0.03198336   0.00000000
